"","SampleName","Methods","Nhat","SE_low","SE_high","CI_lb","CI_ub"
"1","1","Chao1984",1137,1059.9446086681,1214.0553913319,1008,1314
"2","1","ChaoBunge2002",157175,-5413132.54506057,5727482.54506057,1366,29506254
"3","1","ACE-1",1464,1337.4489939262,1590.5510060738,1038,1285
"4","2","Chao1984",1263,1158.59461898444,1367.40538101556,1090,1504
"5","2","ChaoBunge2002",-3409,-6857.20228153645,39.2022815364476,-376,-16770
"6","2","ACE-1",1558,1409.46863993558,1706.53136006442,1057,1335
"7","3","Chao1984",1471,1348.09947941122,1593.90052058878,1265,1752
"8","3","ChaoBunge2002",-1476,-2178.22405827565,-773.775941724354,-493,-3363
"9","3","ACE-1",1958,1765.76477379102,2150.23522620898,1243,1575
"10","4","Chao1984",1053,978.945171255104,1127.0548287449,930,1223
"11","4","ChaoBunge2002",14774,-38971.196627524,68519.196627524,1053,362141
"12","4","ACE-1",1332,1212.17333669312,1451.82666330688,954,1195
"13","5","Chao1984",1093,1005.65182621012,1180.34817378988,949,1295
"14","5","ChaoBunge2002",-1206,-1823.10852782264,-588.891472177362,-362,-2899
"15","5","ACE-1",1612,1443.41038663886,1780.58961336114,1010,1297
"16","6","Chao1984",1272,1173.98400049188,1370.01599950812,1108,1496
"17","6","ChaoBunge2002",-2464,-4280.61317350645,-647.386826493552,-467,-8435
"18","6","ACE-1",1697,1532.26877965841,1861.73122034159,1128,1431
"19","7","Chao1984",1516,1412.0862826859,1619.9137173141,1340,1750
"20","7","ChaoBunge2002",-2186,-3381.17757356697,-990.822426433029,-634,-5614
"21","7","ACE-1",2161,1960.88909460338,2361.11090539662,1413,1767
"22","8","Chao1984",1062,983.916778590709,1140.08322140929,933,1242
"23","8","ChaoBunge2002",-2270,-4102.66417683966,-437.335823160342,-359,-8545
"24","8","ACE-1",1513,1359.29722592552,1666.70277407448,1000,1279
"25","9","Chao1984",1228,1136.89545752459,1319.10454247541,1076,1437
"26","9","ChaoBunge2002",-2336,-3998.58758823234,-673.412411767656,-465,-7701
"27","9","ACE-1",1699,1533.8423936819,1864.1576063181,1123,1421
"28","10","Chao1984",1531,1417.93364779918,1644.06635220082,1340,1787
"29","10","ChaoBunge2002",-2376,-3730.51784798217,-1021.48215201783,-661,-6346
"30","10","ACE-1",2034,1853.8360093209,2214.1639906791,1338,1658
"31","11","Chao1984",1351,1252.62830237305,1449.37169762695,1185,1574
"32","11","ChaoBunge2002",-1232,-1762.93833950191,-701.061660498085,-453,-2601
"33","11","ACE-1",2047,1843.55807223374,2250.44192776626,1276,1620
"34","12","Chao1984",1113,998.368418172384,1227.63158182762,927,1383
"35","12","ChaoBunge2002",-818,-1233.60466144094,-402.395338559062,-234,-1931
"36","12","ACE-1",1447,1279.57759112341,1614.42240887659,888,1169
"37","13","Chao1984",1353,1244.63385545849,1461.36614454151,1172,1601
"38","13","ChaoBunge2002",-1925,-3074.62544169202,-775.374558307984,-491,-5336
"39","13","ACE-1",1785,1611.94721934069,1958.05278065931,1168,1480
"40","14","Chao1984",1215,1107.04958354049,1322.95041645951,1036,1464
"41","14","ChaoBunge2002",-1433,-2271.85982774439,-594.140172255613,-361,-3872
"42","14","ACE-1",1596,1426.57539617713,1765.42460382287,1023,1322
"43","15","Chao1984",1734,1596.05613463389,1871.94386536611,1500,2045
"44","15","ChaoBunge2002",-1234,-1685.22823275254,-782.771767247458,-535,-2341
"45","15","ACE-1",2451,2211.41253165681,2690.58746834319,1504,1903
"46","16","Chao1984",1291,1200.57047431661,1381.42952568339,1139,1497
"47","16","ChaoBunge2002",-6132,-14776.7197758125,2512.71977581253,-387,-46044
"48","16","ACE-1",1681,1532.6087941726,1829.3912058274,1160,1440
"49","64","Chao1984",514,478.887561190088,549.112438809912,459,599
"50","64","ChaoBunge2002",941,650.303219916345,1231.69678008366,573,1793
"51","64","ACE-1",629,571.205677565678,686.794322434322,484,613
"52","65","Chao1984",520,477.145299245702,562.854700754299,453,625
"53","65","ChaoBunge2002",2286,-513.844003844609,5085.84400384461,531,15632
"54","65","ACE-1",674,598.761922097732,749.238077902268,479,632
"55","66","Chao1984",629,582.156700764887,675.843299235113,554,740
"56","66","ChaoBunge2002",2986,-538.968546454696,6510.9685464547,697,19472
"57","66","ACE-1",827,741.85537340549,912.14462659451,592,765
"58","67","Chao1984",673,602.47177194501,743.52822805499,561,843
"59","67","ChaoBunge2002",-1113,-2154.73610133149,-71.2638986685085,-98,-4866
"60","67","ACE-1",915,789.583624463449,1040.41637553655,582,815
"61","68","Chao1984",530,479.761623486618,580.238376513382,452,653
"62","68","ChaoBunge2002",6130,-19031.3542125057,31291.3542125057,450,171643
"63","68","ACE-1",668,587.907052331048,748.092947668952,464,622
"64","69","Chao1984",450,401.215809567529,498.784190432471,376,572
"65","69","ChaoBunge2002",2528,-2568.55401642593,7624.55401642593,384,31522
"66","69","ACE-1",547,476.020259796059,617.979740203941,379,522
"67","70","Chao1984",600,550.315540049455,649.684459950545,522,720
"68","70","ChaoBunge2002",-2194,-5437.16154463244,1049.16154463244,-61,-17255
"69","70","ACE-1",877,769.270160079682,984.729839920318,576,774
"70","71","Chao1984",527,481.650100227672,572.349899772328,457,638
"71","71","ChaoBunge2002",1168,525.009328993217,1810.99067100678,517,3420
"72","71","ACE-1",618,552.191390518271,683.808609481729,462,606
"73","72","Chao1984",452,417.328898514435,486.671101485565,398,537
"74","72","ChaoBunge2002",3390,-4273.82746187525,11053.8274618753,445,48336
"75","72","ACE-1",641,562.706918080359,719.293081919641,445,601
"76","73","Chao1984",622,557.516356996409,686.483643003591,521,779
"77","73","ChaoBunge2002",-2488,-6801.88916565007,1825.88916565007,-35,-24105
"78","73","ACE-1",801,702.012126299547,899.987873700453,526,709
"79","74","Chao1984",452,416.8094239066,487.1905760934,398,539
"80","74","ChaoBunge2002",1457,243.90300810857,2670.09699189143,477,6432
"81","74","ACE-1",593,526.562097517566,659.437902482434,429,566
"82","75","Chao1984",274,244.39992299992,303.60007700008,230,350
"83","75","ChaoBunge2002",18264,-491316.966976409,527844.966976409,260,2865769
"84","75","ACE-1",397,331.635674120234,462.364325879766,257,387
"85","76","Chao1984",499,445.933951797544,552.066048202456,418,631
"86","76","ChaoBunge2002",-1403,-3486.67626790019,680.676267900194,-14,-11007
"87","76","ACE-1",686,588.502207766276,783.497792233724,442,622
"88","77","Chao1984",391,340.257450245709,441.742549754291,315,519
"89","77","ChaoBunge2002",-497,-924.209824846034,-69.7901751539659,-39,-1928
"90","77","ACE-1",615,499.77950234951,730.22049765049,354,562
"91","78","Chao1984",612,499.13059676516,724.86940323484,445,901
"92","78","ChaoBunge2002",-109,-163.046780649736,-54.9532193502637,-21,-236
"93","78","ACE-1",1024,796.448260933734,1251.55173906627,460,783
"94","79","Chao1984",470,420.704613235618,519.295386764382,395,593
"95","79","ChaoBunge2002",5917,-21655.6770305918,33489.6770305918,395,189582
"96","79","ACE-1",590,515.108411648928,664.891588351072,403,548
"97","97","Chao1984",1457,1371.8408917635,1542.1591082365,1312,1648
"98","97","ChaoBunge2002",-18054,-71049.9879133962,34941.9879133962,-337,-341616
"99","97","ACE-1",1948,1796.14195201359,2099.85804798641,1379,1671
"100","98","Chao1984",1255,1177.93677272562,1332.06322727438,1125,1430
"101","98","ChaoBunge2002",-26076,-162213.025863869,110061.025863869,-168,-936579
"102","98","ACE-1",1669,1531.23477946637,1806.76522053363,1185,1451
"103","99","Chao1984",1325,1235.26561815474,1414.73438184526,1174,1529
"104","99","ChaoBunge2002",-1532,-2299.59196173526,-764.408038264742,-479,-3633
"105","99","ACE-1",1999,1806.50183323566,2191.49816676434,1283,1616
"106","100","Chao1984",1573,1474.47415130003,1671.52584869997,1405,1794
"107","100","ChaoBunge2002",-5055,-9785.03267145067,-324.967328549328,-710,-22832
"108","100","ACE-1",2106,1934.71883455704,2277.28116544296,1452,1771
"109","101","Chao1984",1412,1332.47158437889,1491.52841562111,1277,1591
"110","101","ChaoBunge2002",12378,-9723.17029616297,34479.170296163,1724,131695
"111","101","ACE-1",1804,1673.50744795149,1934.49255204851,1320,1578
"112","102","Chao1984",1535,1446.10384509007,1623.89615490993,1383,1734
"113","102","ChaoBunge2002",-28364,-146161.416212527,89433.4162125271,-326,-797857
"114","102","ACE-1",2029,1875.51700964573,2182.48299035427,1439,1733
"115","103","Chao1984",1113,1043.28994575858,1182.71005424142,996,1272
"116","103","ChaoBunge2002",4358,931.48915244074,7784.51084755926,1388,17768
"117","103","ACE-1",1368,1261.97090626427,1474.02909373573,1015,1231
"118","104","Chao1984",1396,1308.86203770329,1483.13796229671,1249,1593
"119","104","ChaoBunge2002",-69767,-919220.29767903,779686.29767903,-242,-5604312
"120","104","ACE-1",1788,1647.47781899782,1928.52218100218,1277,1547
"121","105","Chao1984",1235,1148.63395919426,1321.36604080574,1091,1433
"122","105","ChaoBunge2002",-34939,-292851.887606644,222973.887606644,-141,-1775373
"123","105","ACE-1",1552,1421.59413400688,1682.40586599312,1094,1345
"124","106","Chao1984",1185,1116.9143381104,1253.0856618896,1071,1340
"125","106","ChaoBunge2002",6462,-533.750737183042,13457.750737183,1522,37653
"126","106","ACE-1",1534,1416.31298315964,1651.68701684036,1127,1363
"127","107","Chao1984",1045,979.21894062532,1110.78105937468,936,1196
"128","107","ChaoBunge2002",2646,1451.81038529503,3840.18961470497,1281,6453
"129","107","ACE-1",1239,1146.17402308233,1331.82597691767,942,1137
"130","108","Chao1984",1402,1296.51764979091,1507.48235020909,1225,1643
"131","108","ChaoBunge2002",-2950,-5226.67823959318,-673.321760406821,-530,-10632
"132","108","ACE-1",1811,1647.20821818486,1974.79178181514,1218,1516
"133","109","Chao1984",1074,1007.89387147248,1140.10612852752,964,1226
"134","109","ChaoBunge2002",3163,1439.70975180216,4886.29024819784,1349,9022
"135","109","ACE-1",1307,1207.03686740994,1406.96313259006,984,1191
"136","110","Chao1984",1218,1143.12189076918,1292.87810923082,1092,1388
"137","110","ChaoBunge2002",-373206,-28373502.870444,27627090.870444,-600,-118462902
"138","110","ACE-1",1606,1474.00276260897,1737.99723739103,1145,1401
"139","111","Chao1984",775,717.796269228461,832.203730771539,683,911
"140","111","ChaoBunge2002",5050,-4367.01658801211,14467.0165880121,743,56977
"141","111","ACE-1",966,875.12288410465,1056.87711589535,700,880
"142","112","Chao1984",1141,1077.30817069614,1204.69182930386,1035,1287
"143","112","ChaoBunge2002",4870,877.165543742357,8862.83445625764,1484,20730
"144","112","ACE-1",1460,1351.4596408106,1568.5403591894,1087,1307
"145","113","Chao1984",900,843.661151222836,956.338848777164,808,1031
"146","113","ChaoBunge2002",2133,1236.58741479671,3029.41258520329,1083,4934
"147","113","ACE-1",1084,999.590903379097,1168.4090966209,829,1010
"148","114","Chao1984",1022,964.751458771388,1079.24854122861,926,1153
"149","114","ChaoBunge2002",4635,544.632446017628,8725.36755398237,1334,21425
"150","114","ACE-1",1359,1249.90405952939,1468.09594047061,1003,1225
"151","115","Chao1984",1167,1100.98174895781,1233.01825104219,1056,1317
"152","115","ChaoBunge2002",9598,-6939.45669489442,26135.4566948944,1417,97916
"153","115","ACE-1",1553,1430.88754771326,1675.11245228674,1130,1372
"154","116","Chao1984",916,865.105276820211,966.894723179789,831,1033
"155","116","ChaoBunge2002",2854,1282.44942775269,4425.55057224731,1211,8225
"156","116","ACE-1",1197,1102.48841560456,1291.51158439544,898,1094
"157","117","Chao1984",814,764.878894735376,863.121105264624,734,929
"158","117","ChaoBunge2002",1579,1097.94402997221,2060.05597002779,953,2956
"159","117","ACE-1",974,899.354322380689,1048.64567761931,759,922
"160","118","Chao1984",1037,963.073924176993,1110.92607582301,914,1208
"161","118","ChaoBunge2002",-4150,-9876.24403312656,1576.24403312656,-230,-30146
"162","118","ACE-1",1417,1276.8449817103,1557.1550182897,969,1232
"163","119","Chao1984",758,720.026324907905,795.973675092095,696,847
"164","119","ChaoBunge2002",2194,1062.69201535791,3325.30798464209,982,5988
"165","119","ACE-1",1036,948.750881838904,1123.2491181611,782,964
"166","120","Chao1984",940,872.371130278377,1007.62886972162,829,1098
"167","120","ChaoBunge2002",9690,-18156.3150705423,37536.3150705423,898,182154
"168","120","ACE-1",1174,1066.95648719532,1281.04351280468,846,1058
"169","121","Chao1984",848,794.024673806303,901.975326193697,761,975
"170","121","ChaoBunge2002",2629,872.212871170259,4385.78712882974,974,9114
"171","121","ACE-1",1054,964.74314352208,1143.25685647792,792,976
"172","122","Chao1984",1210,1125.66789420925,1294.33210579075,1069,1402
"173","122","ChaoBunge2002",-16093,-75456.4517454341,43270.451745434,-149,-396436
"174","122","ACE-1",1545,1410.27814927252,1679.72185072748,1086,1346
"175","123","Chao1984",1095,1014.57527714668,1175.42472285332,962,1281
"176","123","ChaoBunge2002",21357,-94062.1745635868,136776.174563587,1031,796961
"177","123","ACE-1",1336,1218.10603943035,1453.89396056965,959,1193
"178","124","Chao1984",1069,989.94164522098,1148.05835477902,939,1252
"179","124","ChaoBunge2002",-3584,-7674.81470088434,506.814700884336,-308,-20459
"180","124","ACE-1",1437,1299.04433010443,1574.95566989557,974,1230
"181","125","Chao1984",805,767.948296455857,842.051703544143,745,892
"182","125","ChaoBunge2002",1327,1080.39942587025,1573.60057412975,963,1959
"183","125","ACE-1",988,922.062107033917,1053.93789296608,799,952
"184","126","Chao1984",1125,1044.38110700249,1205.61889299751,991,1311
"185","126","ChaoBunge2002",130729,-3981222.13531694,4242680.13531694,1267,22467627
"186","126","ACE-1",1404,1281.65553338961,1526.34446661039,997,1235
"187","127","Chao1984",966,888.712307090853,1043.28769290915,840,1146
"188","127","ChaoBunge2002",-3181,-7017.0833182756,655.083318275603,-226,-19402
"189","127","ACE-1",1297,1163.28999249037,1430.71000750963,870,1116
"190","128","Chao1984",698,662.022901145398,733.977098854602,640,783
"191","128","ChaoBunge2002",1067,874.333717539278,1259.66628246072,782,1560
"192","128","ACE-1",825,768.227889738581,881.772110261419,671,804
"193","161","Chao1984",759,718.224143715469,799.775856284531,693,855
"194","161","ChaoBunge2002",1298,1008.94820253268,1587.05179746732,889,2068
"195","161","ACE-1",915,849.412224975974,980.587775024026,728,877
"196","162","Chao1984",1015,949.648231371336,1080.35176862866,907,1166
"197","162","ChaoBunge2002",4982,-300.31966703763,10264.3196670376,1218,28406
"198","162","ACE-1",1277,1172.39792696243,1381.60207303757,936,1148
"199","163","Chao1984",1073,1005.43096788918,1140.56903211082,961,1229
"200","163","ChaoBunge2002",2593,1480.50570087339,3705.49429912661,1294,6077
"201","163","ACE-1",1251,1159.91768873897,1342.08231126103,958,1149
"202","164","Chao1984",732,679.804834809615,784.195165190385,649,857
"203","164","ChaoBunge2002",2142,692.267809994559,3591.73219000544,795,7547
"204","164","ACE-1",883,804.95513829168,961.04486170832,660,821
"205","165","Chao1984",776,727.447409328357,824.552590671643,698,891
"206","165","ChaoBunge2002",2586,731.671604140812,4440.32839585919,909,9634
"207","165","ACE-1",988,903.191240929933,1072.80875907007,736,910
"208","166","Chao1984",777,725.343430230675,828.656569769325,693,899
"209","166","ChaoBunge2002",2337,818.041232013201,3855.9587679868,890,7899
"210","166","ACE-1",964,879.667756086355,1048.33224391365,721,897
"211","167","Chao1984",787,741.235962425165,832.764037574835,713,895
"212","167","ChaoBunge2002",1075,908.241181264038,1241.75881873596,821,1491
"213","167","ACE-1",859,804.183400339056,913.816599660944,708,839
"214","168","Chao1984",738,701.460748225367,774.539251774633,679,824
"215","168","ChaoBunge2002",1411,1047.74842723005,1774.25157276995,915,2409
"216","168","ACE-1",936,866.788719304596,1005.2112806954,737,891
"217","169","Chao1984",476,435.957993248496,516.042006751504,415,575
"218","169","ChaoBunge2002",2553,-1548.02468414617,6654.02468414617,464,24179
"219","169","ACE-1",629,555.458928110232,702.541071889768,443,591
"220","170","Chao1984",824,775.617043473616,872.382956526384,744,936
"221","170","ChaoBunge2002",1901,1152.55215955076,2649.44784044924,1005,4199
"222","170","ACE-1",1024,942.228640253997,1105.771359746,784,961
"223","171","Chao1984",706,650.743778630818,761.256221369182,617,838
"224","171","ChaoBunge2002",2284,522.541190962899,4045.4588090371,769,9214
"225","171","ACE-1",854,773.493967030955,934.506032969045,626,793
"226","172","Chao1984",530,390.412699762197,669.587300237803,340,915
"227","172","ChaoBunge2002",-73,-113.695019876308,-32.3049801236924,-7,-169
"228","172","ACE-1",721,536.800068127602,905.199931872398,307,560
"229","173","Chao1984",765,704.68883976732,825.31116023268,668,908
"230","173","ChaoBunge2002",2234,698.751412454893,3769.24858754511,823,8001
"231","173","ACE-1",898,815.063292951615,980.936707048385,665,839
"232","174","Chao1984",525,450.651311927524,599.348688072476,413,712
"233","174","ChaoBunge2002",-795,-1596.12807856082,6.1280785608152,-45,-3766
"234","174","ACE-1",654,548.925653946285,759.074346053715,400,594
"235","175","Chao1984",225,192.927954880664,257.072045119336,180,311
"236","175","ChaoBunge2002",-402,-945.039862851202,141.039862851202,16,-2699
"237","175","ACE-1",352,275.90871902247,428.09128097753,202,340
"238","176","Chao1984",676,643.294370845286,708.705629154714,623,753
"239","176","ChaoBunge2002",1040,863.205723820212,1216.79427617979,776,1489
"240","176","ACE-1",818,761.628604636781,874.371395363219,667,801
"241","177","Chao1984",952,885.13430070599,1018.86569929401,842,1107
"242","177","ChaoBunge2002",-2432,-4859.22131497591,-4.77868502409137,-248,-11689
"243","177","ACE-1",1334,1203.3295825652,1464.6704174348,901,1138
"244","178","Chao1984",939,882.41829584334,995.58170415666,846,1070
"245","178","ChaoBunge2002",3899,391.469474607045,7406.53052539295,1116,18454
"246","178","ACE-1",1206,1105.7804293563,1306.2195706437,894,1098
"247","179","Chao1984",1027,960.714504592478,1093.28549540752,917,1180
"248","179","ChaoBunge2002",19508,-75863.3527424084,114879.352742408,1036,656529
"249","179","ACE-1",1339,1224.5261652855,1453.4738347145,960,1182
"250","180","Chao1984",825,774.259879243868,875.740120756132,742,944
"251","180","ChaoBunge2002",1840,1102.96117655269,2577.03882344731,962,4112
"252","180","ACE-1",996,917.312259522935,1074.68774047706,767,936
"253","181","Chao1984",740,694.176895016353,785.823104983647,667,850
"254","181","ChaoBunge2002",1433,942.984994682401,1923.0150053176,817,2877
"255","181","ACE-1",875,805.779494245533,944.220505754467,684,835
"256","182","Chao1984",757,698.957365197491,815.042634802509,664,896
"257","182","ChaoBunge2002",8530,-23231.5650051829,40291.5650051829,643,214716
"258","182","ACE-1",944,850.290798719724,1037.70920128028,680,864
"259","183","Chao1984",778,727.479972620987,828.520027379013,696,898
"260","183","ChaoBunge2002",1294,956.719832899535,1631.28016710047,835,2224
"261","183","ACE-1",874,809.090893630521,938.909106369479,693,838
"262","184","Chao1984",802,753.644222165288,850.355777834712,724,916
"263","184","ChaoBunge2002",2104,1040.82452274812,3167.17547725188,955,5646
"264","184","ACE-1",1008,923.984202951146,1092.01579704885,764,942
"265","185","Chao1984",711,667.959093284706,754.040906715294,642,813
"266","185","ChaoBunge2002",1092,860.222500732306,1323.77749926769,761,1704
"267","185","ACE-1",806,747.747943823222,864.252056176778,649,783
"268","186","Chao1984",470,441.962664613825,498.037335386175,428,541
"269","186","ChaoBunge2002",594,507.935495895347,680.064504104653,461,806
"270","186","ACE-1",515,479.215671460182,550.784328539818,432,520
"271","188","Chao1984",532,479.878957577076,584.121042422924,452,660
"272","188","ChaoBunge2002",-2860,-9536.6512086061,3816.6512086061,9,-40555
"273","188","ACE-1",713,621.206319115511,804.793680884489,473,646
"274","189","Chao1984",921,867.971922521659,974.028077478341,833,1044
"275","189","ChaoBunge2002",3377,964.490608918442,5789.50939108156,1176,12489
"276","189","ACE-1",1200,1102.81754610926,1297.18245389074,892,1090
"277","190","Chao1984",874,803.112396400318,944.887603599682,759,1041
"278","190","ChaoBunge2002",-2694,-5931.3963015209,543.396301520904,-180,-16314
"279","190","ACE-1",1178,1053.74628176241,1302.25371823759,790,1019
"280","191","Chao1984",465,399.399017235365,530.600982764635,367,631
"281","191","ChaoBunge2002",-371,-633.986401096663,-108.013598903337,-45,-1156
"282","191","ACE-1",699,569.280130012672,828.719869987328,393,615
"283","192","Chao1984",1331,1246.0096231844,1415.9903768156,1188,1524
"284","192","ChaoBunge2002",-45343,-442485.918393194,351799.918393194,-180,-2708707
"285","192","ACE-1",1678,1546.34542034858,1809.65457965142,1201,1455
"286","193","Chao1984",2267,2145.09399287837,2388.90600712163,2054,2534
"287","193","ChaoBunge2002",-3643,-5265.57662267576,-2020.42337732424,-1385,-8027
"288","193","ACE-1",3314,3066.4383697918,3561.5616302082,2209,2651
"289","194","Chao1984",3155,2987.60530041238,3322.39469958762,2859,3518
"290","194","ChaoBunge2002",-3039,-3950.89842891432,-2127.10157108568,-1587,-5222
"291","194","ACE-1",4550,4235.38291138998,4864.61708861002,2958,3501
"292","195","Chao1984",1939,1809.5847998503,2068.4152001497,1716,2227
"293","195","ChaoBunge2002",-1650,-2242.89134311686,-1057.10865688314,-736,-3112
"294","195","ACE-1",2869,2616.45234790172,3121.54765209828,1808,2240
"295","196","Chao1984",2014,1889.52829600323,2138.47170399677,1798,2289
"296","196","ChaoBunge2002",-1709,-2269.46255203936,-1148.53744796064,-824,-3060
"297","196","ACE-1",3130,2863.40966368587,3396.59033631413,1954,2403
"298","197","Chao1984",1870,1743.78420219909,1996.21579780091,1653,2151
"299","197","ChaoBunge2002",-1192,-1567.2704603485,-816.729539651499,-583,-2075
"300","197","ACE-1",2994,2715.12487163016,3272.87512836984,1809,2265
"301","198","Chao1984",1944,1812.18563494499,2075.81436505501,1718,2238
"302","198","ChaoBunge2002",-1875,-2592.88370072776,-1157.11629927224,-796,-3686
"303","198","ACE-1",2763,2525.94010816244,3000.05989183756,1760,2165
"304","199","Chao1984",1720,1598.2461499582,1841.7538500418,1512,1993
"305","199","ChaoBunge2002",-2002,-2904.5696982576,-1099.4303017424,-728,-4410
"306","199","ACE-1",2395,2181.21969280952,2608.78030719048,1551,1931
"307","200","Chao1984",1929,1791.59576742051,2066.40423257949,1693,2236
"308","200","ChaoBunge2002",-1655,-2285.66231165251,-1024.33768834749,-700,-3235
"309","200","ACE-1",2718,2472.44291893612,2963.55708106388,1719,2139
"310","201","Chao1984",1531,1427.68241020455,1634.31758979545,1355,1763
"311","201","ChaoBunge2002",-3016,-5092.62448452388,-939.375515476119,-649,-9650
"312","201","ACE-1",2156,1950.77033857828,2361.22966142172,1437,1813
"313","202","Chao1984",1475,1359.64989806836,1590.35010193164,1280,1737
"314","202","ChaoBunge2002",-1626,-2428.90971832831,-823.090281671689,-522,-3819
"315","202","ACE-1",2037,1835.44933410142,2238.55066589858,1301,1652
"316","203","Chao1984",1931,1787.12430438018,2074.87569561982,1685,2253
"317","203","ChaoBunge2002",-1193,-1588.30748094518,-797.692519054815,-560,-2134
"318","203","ACE-1",2838,2569.40962196502,3106.59037803498,1724,2163
"319","204","Chao1984",1997,1865.49986748602,2128.50013251398,1770,2289
"320","204","ChaoBunge2002",-2093,-2890.54016998997,-1295.45983001003,-898,-4111
"321","204","ACE-1",2862,2620.475370917,3103.524629083,1828,2243
"322","205","Chao1984",2073,1938.86168583796,2207.13831416204,1841,2370
"323","205","ChaoBunge2002",-1621,-2197.3520205398,-1044.6479794602,-725,-3031
"324","205","ACE-1",3159,2870.55011568748,3447.44988431252,1976,2459
"325","206","Chao1984",1592,1494.99216565713,1689.00783434287,1425,1808
"326","206","ChaoBunge2002",-2034,-2950.97227607072,-1117.02772392928,-738,-4478
"327","206","ACE-1",2492,2265.08730474915,2718.91269525085,1601,1996
"328","207","Chao1984",1798,1648.74870470798,1947.25129529202,1545,2135
"329","207","ChaoBunge2002",-954,-1263.26757502533,-644.732424974675,-452,-1682
"330","207","ACE-1",2595,2334.01577097568,2855.98422902432,1544,1971
"331","208","Chao1984",1725,1614.3144201155,1835.6855798845,1535,1972
"332","208","ChaoBunge2002",-2386,-3539.26612563649,-1232.73387436351,-811,-5553
"333","208","ACE-1",2489,2272.30403707075,2705.69596292925,1627,2009
"334","209","Chao1984",1027,956.388468940125,1097.61153105988,909,1189
"335","209","ChaoBunge2002",-4161,-9232.36924071208,910.369240712076,-326,-25855
"336","209","ACE-1",1462,1320.96034998872,1603.03965001128,987,1250
"337","210","Chao1984",1299,1201.9736881868,1396.0263118132,1137,1521
"338","210","ChaoBunge2002",-2665,-4659.0359666764,-670.964033323601,-499,-9281
"339","210","ACE-1",1741,1577.2635140446,1904.7364859554,1162,1462
"340","211","Chao1984",985,922.903201826256,1047.09679817374,881,1127
"341","211","ChaoBunge2002",-8036,-25521.7742967092,9449.77429670922,-190,-105171
"342","211","ACE-1",1429,1293.92838917333,1564.07161082667,981,1238
"343","212","Chao1984",1025,951.22477636942,1098.77522363058,902,1194
"344","212","ChaoBunge2002",-2534,-4637.36303357777,-430.636966422227,-394,-9870
"345","212","ACE-1",1507,1353.4360265033,1660.5639734967,991,1270
"346","213","Chao1984",907,831.681725525485,982.318274474515,784,1083
"347","213","ChaoBunge2002",-3069,-6875.55876671363,737.558766713626,-202,-19395
"348","213","ACE-1",1208,1080.71033442383,1335.28966557617,808,1045
"349","214","Chao1984",1444,1326.00077368322,1561.99922631678,1246,1713
"350","214","ChaoBunge2002",-936,-1281.23415103633,-590.765848963668,-396,-1776
"351","214","ACE-1",2181,1951.0880611804,2410.9119388196,1305,1682
"352","215","Chao1984",809,747.64280781946,870.35719218054,709,952
"353","215","ChaoBunge2002",-2895,-6293.37525282697,503.375252826967,-220,-17067
"354","215","ACE-1",1176,1050.32716124697,1301.67283875303,776,1007
"355","216","Chao1984",1135,1056.63863576553,1213.36136423447,1004,1314
"356","216","ChaoBunge2002",-2479,-4301.80475339293,-656.195246607072,-475,-8469
"357","216","ACE-1",1662,1500.92530560097,1823.07469439903,1094,1382
"358","217","Chao1984",1185,1100.66789420925,1269.33210579075,1044,1377
"359","217","ChaoBunge2002",-5606,-13368.2710224843,2156.27102248432,-361,-41110
"360","217","ACE-1",1577,1434.40959077145,1719.59040922855,1078,1346
"361","218","Chao1984",1053,956.100804880157,1149.89919511984,894,1279
"362","218","ChaoBunge2002",-3125,-6785.72127317844,535.721273178438,-241,-18385
"363","218","ACE-1",1279,1146.79812893787,1411.20187106213,860,1109
"364","219","Chao1984",870,812.209578971177,927.790421028823,774,1004
"365","219","ChaoBunge2002",12658,-31748.0081216114,57064.0081216114,951,298108
"366","219","ACE-1",1189,1077.35870363729,1300.64129636271,839,1059
"367","220","Chao1984",951,871.566950976281,1030.43304902372,821,1137
"368","220","ChaoBunge2002",-2296,-4443.58150448236,-148.418495517644,-271,-10219
"369","220","ACE-1",1295,1156.97464379574,1433.02535620426,852,1102
"370","221","Chao1984",1039,974.986066537516,1103.01393346248,932,1186
"371","221","ChaoBunge2002",6361,-1736.3757106001,14458.3757106001,1300,45023
"372","221","ACE-1",1379,1261.45312158822,1496.54687841178,998,1235
"373","222","Chao1984",1311,1219.95267488049,1402.04732511951,1157,1517
"374","222","ChaoBunge2002",-1543,-2315.08239704661,-770.917602953385,-484,-3657
"375","222","ACE-1",1991,1792.54013765661,2189.45986234339,1268,1611
"376","223","Chao1984",877,815.740172470371,938.259827529629,776,1019
"377","223","ChaoBunge2002",-26984,-245022.291121994,191054.291121994,-57,-1494800
"378","223","ACE-1",1216,1098.60883013889,1333.39116986111,840,1066
"379","224","Chao1984",701,637.990639601126,764.009360398874,600,851
"380","224","ChaoBunge2002",-4394,-13984.1222697338,5196.12226973379,-51,-57482
"381","224","ACE-1",941,832.702245947802,1049.2977540522,627,831
"382","257","Chao1984",1232,1157.78480064654,1306.21519935346,1106,1400
"383","257","ChaoBunge2002",-8943,-25207.2594654033,7321.25946540326,-368,-93399
"384","257","ACE-1",1720,1575.83381847992,1864.16618152008,1197,1472
"385","258","Chao1984",1220,1141.02673360443,1298.97326639557,1087,1399
"386","258","ChaoBunge2002",-6148,-14677.2786878648,2381.27868786477,-408,-45248
"387","258","ACE-1",1676,1530.41504425897,1821.58495574103,1153,1425
"388","259","Chao1984",1275,1206.28583057594,1343.71416942406,1158,1430
"389","259","ChaoBunge2002",7036,-220.955848175189,14292.9558481752,1722,38697
"390","259","ACE-1",1680,1553.75132444548,1806.24867555452,1238,1494
"391","260","Chao1984",1795,1692.9822090559,1897.0177909441,1619,2022
"392","260","ChaoBunge2002",-3006,-4481.49529162859,-1530.50470837141,-1023,-7115
"393","260","ACE-1",2635,2429.03442180811,2840.96557819189,1746,2109
"394","261","Chao1984",1510,1418.84146186879,1601.15853813121,1354,1714
"395","261","ChaoBunge2002",-7122,-16056.3124626062,1812.31246260619,-609,-46207
"396","261","ACE-1",2031,1868.68649230491,2193.31350769509,1414,1719
"397","262","Chao1984",1135,1053.31858228459,1216.68141771541,999,1323
"398","262","ChaoBunge2002",144628,-4668359.85213204,4957615.85213204,1329,25920198
"399","262","ACE-1",1423,1299.3141881548,1546.6858118452,1005,1245
"400","263","Chao1984",1220,1116.11410996604,1323.88589003396,1048,1459
"401","263","ChaoBunge2002",-1386,-2125.69720580742,-646.302794192576,-399,-3459
"402","263","ACE-1",1674,1496.778966193,1851.221033807,1061,1372
"403","264","Chao1984",1360,1272.0355722597,1447.9644277403,1211,1559
"404","264","ChaoBunge2002",-8223,-21875.3444601591,5429.3444601591,-393,-76345
"405","264","ACE-1",1808,1654.31753296915,1961.68246703085,1258,1549
"406","265","Chao1984",977,919.600376058682,1034.39962394132,882,1109
"407","265","ChaoBunge2002",3903,932.176956121688,6873.82304387831,1284,15397
"408","265","ACE-1",1281,1177.18762441527,1384.81237558473,945,1157
"409","266","Chao1984",1227,1150.2727946075,1303.7272053925,1097,1401
"410","266","ChaoBunge2002",-21393,-112225.496203302,69439.496203302,-191,-616331
"411","266","ACE-1",1638,1503.07635123072,1772.92364876928,1154,1414
"412","267","Chao1984",730,656.916793593301,803.083206406699,614,906
"413","267","ChaoBunge2002",-13262,-104274.726681496,77750.7266814955,26,-627802
"414","267","ACE-1",878,776.389737045099,979.610262954901,599,796
"415","268","Chao1984",355,313.512035783236,396.487964216764,293,461
"416","268","ChaoBunge2002",3191,-8254.57338883577,14636.5733888358,293,77265
"417","268","ACE-1",457,388.142764151382,525.857235848618,306,443
"418","269","Chao1984",1081,1000.77801107045,1161.22198892955,948,1266
"419","269","ChaoBunge2002",21148,-85875.574084553,128171.574084553,1084,737688
"420","269","ACE-1",1338,1220.03265307399,1455.96734692601,948,1178
"421","270","Chao1984",395,348.71633020779,441.28366979221,326,512
"422","270","ChaoBunge2002",-1094,-2638.64592166789,450.645921667889,-10,-8006
"423","270","ACE-1",560,473.143076280979,646.856923719022,347,504
"424","271","Chao1984",552,439.265448501524,664.734551498476,391,850
"425","271","ChaoBunge2002",-239,-407.987705945465,-70.0122940545351,-20,-723
"426","271","ACE-1",635,506.877142897226,763.122857102774,346,559
"427","272","Chao1984",1658,1561.35738658315,1754.64261341685,1492,1873
"428","272","ChaoBunge2002",-19519,-71828.5362643846,32790.5362643846,-462,-331345
"429","272","ACE-1",2174,2009.62954717201,2338.37045282799,1539,1856
"430","273","Chao1984",988,915.330794440387,1060.66920555961,868,1156
"431","273","ChaoBunge2002",-11262,-51915.1121734345,29391.1121734345,-63,-270508
"432","273","ACE-1",1290,1163.80459811474,1416.19540188526,902,1148
"433","274","Chao1984",899,843.97630909175,954.02369090825,808,1026
"434","274","ChaoBunge2002",3046,1014.70859735037,5077.29140264963,1127,10529
"435","274","ACE-1",1154,1056.70126742616,1251.29873257384,857,1059
"436","275","Chao1984",1310,1222.54911985804,1397.45088014196,1163,1509
"437","275","ChaoBunge2002",-16368,-69822.4430264723,37086.4430264723,-220,-350830
"438","275","ACE-1",1673,1535.1770779191,1810.8229220809,1179,1445
"439","276","Chao1984",1137,1051.23758541221,1222.76241458779,995,1335
"440","276","ChaoBunge2002",-4913,-11989.5777219498,2163.57772194979,-267,-37808
"441","276","ACE-1",1452,1319.59172951788,1584.40827048212,999,1244
"442","277","Chao1984",902,807.976770204352,996.023229795648,753,1128
"443","277","ChaoBunge2002",-2092,-4603.05804100797,419.058041007967,-117,-12570
"444","277","ACE-1",1051,935.686854986021,1166.31314501398,705,916
"445","278","Chao1984",900,835.85795193883,964.14204806117,795,1049
"446","278","ChaoBunge2002",3485,343.213258818986,6626.78674118101,1008,16575
"447","278","ACE-1",1097,999.946370354746,1194.05362964525,807,1006
"448","279","Chao1984",1005,929.20504061578,1080.79495938422,881,1182
"449","279","ChaoBunge2002",-10030,-41639.1624771877,21579.1624771877,-84,-205957
"450","279","ACE-1",1280,1161.10493888047,1398.89506111953,894,1120
"451","280","Chao1984",887,811.758862209675,962.241137790325,765,1064
"452","280","ChaoBunge2002",-4492,-13081.8841264192,4097.88412641917,-89,-49667
"453","280","ACE-1",1146,1021.83780268445,1270.16219731555,780,1016
"454","281","Chao1984",564,521.799028447203,606.200971552797,498,666
"455","281","ChaoBunge2002",1251,678.347136667438,1823.65286333256,617,3124
"456","281","ACE-1",681,616.916280125394,745.083719874606,513,650
"457","282","Chao1984",1035,951.187432648422,1118.81256735158,898,1231
"458","282","ChaoBunge2002",-44101,-647574.54569065,559372.54569065,-66,-3918408
"459","282","ACE-1",1232,1118.67053883963,1345.32946116037,872,1092
"460","283","Chao1984",450,360.895444736104,539.104555263896,323,685
"461","283","ChaoBunge2002",-146,-238.153327281552,-53.8466727184483,-14,-389
"462","283","ACE-1",639,493.839695328331,784.160304671669,319,554
"463","284","Chao1984",691,628.953343128138,753.046656871862,592,839
"464","284","ChaoBunge2002",-1816,-3809.87013874129,177.870138741292,-132,-9756
"465","284","ACE-1",973,855.435263341241,1090.56473665876,631,845
"466","285","Chao1984",915,820.10155455065,1009.89844544935,763,1141
"467","285","ChaoBunge2002",-1143,-1997.70938203673,-288.29061796327,-175,-3887
"468","285","ACE-1",1177,1031.1545913592,1322.8454086408,749,1008
"469","286","Chao1984",411,359.170581887811,462.829418112189,333,541
"470","286","ChaoBunge2002",-787,-1764.42832571888,190.428325718879,-9,-4835
"471","286","ACE-1",583,481.580941669559,684.419058330441,358,552
"472","287","Chao1984",340,275.858089899445,404.141910100555,251,513
"473","287","ChaoBunge2002",-199,-366.500862874972,-31.4991371250282,0,-717
"474","287","ACE-1",466,362.297650013945,569.702349986055,251,422
"475","288","Chao1984",1290,1199.32100297431,1380.67899702569,1137,1496
"476","288","ChaoBunge2002",-2414,-4022.82767337903,-805.172326620969,-538,-7460
"477","288","ACE-1",1813,1643.93711195775,1982.06288804225,1199,1504
"478","289","Chao1984",2055,1929.8863751589,2180.1136248411,1839,2332
"479","289","ChaoBunge2002",-2199,-3036.89670976077,-1361.10329023923,-944,-4320
"480","289","ACE-1",3004,2762.8646167911,3245.1353832089,1937,2351
"481","290","Chao1984",1720,1624.64475020531,1815.35524979469,1555,1931
"482","290","ChaoBunge2002",-4126,-6801.18846159921,-1450.81153840079,-1018,-12541
"483","290","ACE-1",2503,2305.50767227824,2700.49232772176,1699,2061
"484","291","Chao1984",1732,1622.21939113178,1841.78060886822,1544,1977
"485","291","ChaoBunge2002",-2996,-4623.62578816387,-1368.37421183613,-905,-7707
"486","291","ACE-1",2392,2200.17784873674,2583.82215126326,1589,1928
"487","292","Chao1984",1951,1841.91815140903,2060.08184859097,1762,2192
"488","292","ChaoBunge2002",-3434,-5213.00014775294,-1654.99985224706,-1105,-8503
"489","292","ACE-1",2820,2602.50832992932,3037.49167007068,1890,2278
"490","293","Chao1984",2217,2084.77699121604,2349.22300878396,1987,2508
"491","293","ChaoBunge2002",-2410,-3314.71284531735,-1505.28715468265,-1052,-4695
"492","293","ACE-1",3222,2967.96606336702,3476.03393663298,2085,2521
"493","294","Chao1984",1648,1562.86581188845,1733.13418811155,1501,1837
"494","294","ChaoBunge2002",-7570,-15796.5172360694,656.517236069432,-872,-41141
"495","294","ACE-1",2379,2196.7577986701,2561.2422013299,1660,2003
"496","295","Chao1984",1867,1749.86386171843,1984.13613828157,1665,2128
"497","295","ChaoBunge2002",-2173,-3090.76327977358,-1255.23672022642,-846,-4571
"498","295","ACE-1",2698,2473.61845968737,2922.38154031263,1752,2142
"499","296","Chao1984",1883,1772.86826060834,1993.13173939166,1693,2127
"500","296","ChaoBunge2002",-2524,-3634.0816210419,-1413.9183789581,-952,-5478
"501","296","ACE-1",2794,2566.74294780273,3021.25705219727,1829,2226
"502","297","Chao1984",1843,1740.04571203159,1945.95428796841,1665,2071
"503","297","ChaoBunge2002",-2164,-3004.03964133543,-1323.96035866457,-914,-4303
"504","297","ACE-1",2914,2674.56151245263,3153.43848754737,1874,2287
"505","298","Chao1984",1993,1881.57098631524,2104.42901368476,1799,2238
"506","298","ChaoBunge2002",-2183,-3004.27864804091,-1361.72135195909,-948,-4253
"507","298","ACE-1",3100,2850.54783628275,3349.45216371725,1997,2425
"508","299","Chao1984",2334,2190.40531543732,2477.59468456268,2085,2651
"509","299","ChaoBunge2002",-2459,-3373.19558292711,-1544.80441707289,-1083,-4763
"510","299","ACE-1",3260,3008.24491394414,3511.75508605586,2116,2550
"511","300","Chao1984",2197,2086.86963820408,2307.13036179592,2004,2438
"512","300","ChaoBunge2002",-4043,-5920.82342153159,-2165.17657846841,-1483,-9210
"513","300","ACE-1",3274,3040.81815228482,3507.18184771518,2198,2615
"514","301","Chao1984",2191,2066.13952915808,2315.86047084192,1974,2466
"515","301","ChaoBunge2002",-3382,-4895.89240022565,-1868.10759977435,-1276,-7475
"516","301","ACE-1",3113,2879.7683224699,3346.2316775301,2073,2490
"517","302","Chao1984",2318,2190.69794706205,2445.30205293795,2095,2597
"518","302","ChaoBunge2002",-2131,-2815.01043438763,-1446.98956561237,-1050,-3780
"519","302","ACE-1",3648,3361.18947578653,3934.81052421347,2319,2806
"520","303","Chao1984",2686,2540.98633421227,2831.01366578773,2431,3002
"521","303","ChaoBunge2002",-4381,-6225.2527875833,-2536.7472124167,-1774,-9297
"522","303","ACE-1",3727,3469.70886677041,3984.29113322959,2498,2958
"523","304","Chao1984",2220,2089.74680011694,2350.25319988306,1993,2507
"524","304","ChaoBunge2002",-6135,-10509.8440828321,-1760.15591716787,-1372,-20625
"525","304","ACE-1",2876,2669.65182317103,3082.34817682897,1986,2369
"526","305","Chao1984",1865,1762.87348245674,1967.12651754326,1688,2091
"527","305","ChaoBunge2002",-4594,-7515.50354446641,-1672.49645553359,-1175,-13729
"528","305","ACE-1",2669,2467.98704833027,2870.01295166973,1812,2176
"529","306","Chao1984",1541,1459.17054615926,1622.82945384074,1401,1724
"530","306","ChaoBunge2002",6932,1579.66450112707,12284.3354988729,2186,27553
"531","306","ACE-1",1936,1805.18050328613,2066.81949671387,1443,1709
"532","307","Chao1984",1645,1551.34426484156,1738.65573515844,1484,1854
"533","307","ChaoBunge2002",-16774,-55065.298100947,21517.298100947,-534,-233981
"534","307","ACE-1",2181,2020.11814708325,2341.88185291675,1544,1853
"535","308","Chao1984",1252,1165.98056221391,1338.01943778609,1108,1448
"536","308","ChaoBunge2002",-4191,-8492.74848011758,110.748480117579,-475,-21064
"537","308","ACE-1",1713,1557.83513934591,1868.16486065409,1161,1447
"538","309","Chao1984",1694,1592.29324298018,1795.70675701982,1519,1921
"539","309","ChaoBunge2002",-13172,-37410.6130824049,11066.6130824049,-603,-139982
"540","309","ACE-1",2182,2019.3168778252,2344.6831221748,1537,1847
"541","310","Chao1984",1218,1138.35198571057,1297.64801428943,1084,1399
"542","310","ChaoBunge2002",34022,-185464.923190761,253508.923190761,1328,1515924
"543","310","ACE-1",1560,1433.01289272942,1686.98710727058,1110,1357
"544","311","Chao1984",1243,1155.69904143368,1330.30095856632,1097,1443
"545","311","ChaoBunge2002",-125222,-3391364.17941991,3140920.17941991,-276,-18718915
"546","311","ACE-1",1552,1421.21170916945,1682.78829083055,1099,1352
"547","312","Chao1984",1737,1617.31435428554,1856.68564571446,1533,2005
"548","312","ChaoBunge2002",-2763,-4263.13995176785,-1262.86004823215,-829,-7092
"549","312","ACE-1",2348,2145.76432518469,2550.23567481531,1551,1913
"550","313","Chao1984",1328,1259.21321137318,1396.78678862682,1211,1483
"551","313","ChaoBunge2002",4569,2013.04361289176,7124.95638710824,1886,13277
"552","313","ACE-1",1701,1581.01477504506,1820.98522495494,1281,1531
"553","314","Chao1984",1387,1308.72028311987,1465.27971688013,1254,1563
"554","314","ChaoBunge2002",54800,-392105.616105591,501705.616105591,1650,3058645
"555","314","ACE-1",1855,1715.51860055625,1994.48139944375,1327,1598
"556","315","Chao1984",1652,1553.27099294602,1750.72900705398,1483,1873
"557","315","ChaoBunge2002",-4505,-7965.06999754866,-1044.93000245134,-871,-16289
"558","315","ACE-1",2288,2104.38822469565,2471.61177530435,1564,1903
"559","316","Chao1984",2165,2042.10418686695,2287.89581313305,1951,2436
"560","316","ChaoBunge2002",-12280,-27963.6594556769,3403.65945567691,-1151,-82005
"561","316","ACE-1",2729,2545.23467196019,2912.76532803981,1929,2276
"562","317","Chao1984",1304,1229.79862070443,1378.20137929557,1179,1472
"563","317","ChaoBunge2002",14984,-20724.804665574,50692.804665574,1556,225824
"564","317","ACE-1",1710,1581.81064650769,1838.18935349231,1238,1489
"565","318","Chao1984",1601,1482.2239855095,1719.7760144905,1400,1869
"566","318","ChaoBunge2002",-2552,-4070.09506386101,-1033.90493613899,-673,-7087
"567","318","ACE-1",2069,1887.47453771315,2250.52546228685,1373,1698
"568","319","Chao1984",1612,1493.1766942678,1730.8233057322,1410,1880
"569","319","ChaoBunge2002",-2210,-3389.10362095409,-1030.89637904591,-664,-5565
"570","319","ACE-1",2134,1945.71908018546,2322.28091981454,1402,1737
"571","320","Chao1984",1641,1539.98458889853,1742.01541110147,1468,1866
"572","320","ChaoBunge2002",-6308,-12805.165387769,189.165387769033,-775,-32040
"573","320","ACE-1",2196,2020.13831984916,2371.86168015084,1519,1849
"574","353","Chao1984",866,794.775069430334,937.224930569666,750,1033
"575","353","ChaoBunge2002",-3866,-9899.48794198511,2167.48794198511,-148,-32892
"576","353","ACE-1",1149,1028.77538629803,1269.22461370197,774,999
"577","354","Chao1984",715,662.711182589238,767.288817410762,631,839
"578","354","ChaoBunge2002",2022,734.022036559608,3309.97796344039,790,6725
"579","354","ACE-1",875,792.346041788878,957.653958211122,651,826
"580","355","Chao1984",796,729.891966110443,862.108033889557,689,952
"581","355","ChaoBunge2002",-1921,-3827.17584186137,-14.8241581386349,-187,-9135
"582","355","ACE-1",1125,996.968424872711,1253.03157512729,738,974
"583","356","Chao1984",815,757.192517663754,872.807482336246,721,950
"584","356","ChaoBunge2002",2852,573.657044724212,5130.34295527579,924,11914
"585","356","ACE-1",1014,919.817895086147,1108.18210491385,746,942
"586","357","Chao1984",701,658.208672112884,743.791327887116,632,802
"587","357","ChaoBunge2002",2192,831.793874639754,3552.20612536025,867,7093
"588","357","ACE-1",927,843.717103087936,1010.28289691206,688,862
"589","358","Chao1984",760,716.484657175233,803.515342824767,689,862
"590","358","ChaoBunge2002",1166,931.68707871742,1400.31292128258,827,1778
"591","358","ACE-1",873,810.324090714533,935.675909285467,705,851
"592","359","Chao1984",642,597.537671207632,686.462328792368,571,749
"593","359","ChaoBunge2002",1716,750.664055562782,2681.33594443722,735,5087
"594","359","ACE-1",805,730.63256860836,879.36743139164,600,755
"595","360","Chao1984",755,678.638141293391,831.361858706609,634,939
"596","360","ChaoBunge2002",-2766,-7288.11084443795,1756.11084443795,-62,-24862
"597","360","ACE-1",932,821.794232961779,1042.20576703822,623,832
"598","361","Chao1984",594,543.730310834833,644.269689165167,515,715
"599","361","ChaoBunge2002",2295,-158.694211681151,4748.69421168115,597,13365
"600","361","ACE-1",734,655.448490024576,812.551509975424,528,689
"601","362","Chao1984",806,736.337962987631,875.662037012369,693,970
"602","362","ChaoBunge2002",-1149,-1978.62081587422,-319.379184125785,-192,-3774
"603","362","ACE-1",1207,1056.63161153776,1357.36838846224,760,1023
"604","363","Chao1984",643,579.362423875088,706.637576124912,542,796
"605","363","ChaoBunge2002",-692,-1134.32567712246,-249.674322877544,-133,-1990
"606","363","ACE-1",1015,869.481012466614,1160.51898753339,605,851
"607","364","Chao1984",401,327.003510218389,474.996489781611,294,594
"608","364","ChaoBunge2002",-133,-204.742637438273,-61.2573625617267,-24,-313
"609","364","ACE-1",694,528.872299723832,859.127700276168,325,579
"610","365","Chao1984",729,667.326969571654,790.673030428346,630,875
"611","365","ChaoBunge2002",-2746,-6632.44648448298,1140.44648448298,-113,-20496
"612","365","ACE-1",1024,904.044736333145,1143.95526366686,677,901
"613","366","Chao1984",508,449.172922901099,566.827077098901,417,653
"614","366","ChaoBunge2002",-470,-792.038896954967,-147.961103045033,-68,-1425
"615","366","ACE-1",829,684.921646768802,973.078353231198,473,715
"616","367","Chao1984",503,415.742617943994,590.257382056006,374,726
"617","367","ChaoBunge2002",-105,-161.941279636064,-48.058720363936,-14,-241
"618","367","ACE-1",969,731.362664013196,1206.6373359868,429,770
"619","368","Chao1984",693,647.270363026903,738.729636973097,619,801
"620","368","ChaoBunge2002",16661,-92387.3221858288,125709.322185829,713,752980
"621","368","ACE-1",989,886.876673496884,1091.12332650312,692,890
"622","369","Chao1984",1536,1465.665419105,1606.334580895,1415,1693
"623","369","ChaoBunge2002",3349,2450.14773358362,4247.85226641638,2105,5790
"624","369","ACE-1",1857,1749.26242252445,1964.73757747555,1459,1692
"625","370","Chao1984",1238,1195.18272234404,1280.81727765596,1165,1334
"626","370","ChaoBunge2002",1944,1696.05914607189,2191.94085392811,1548,2536
"627","370","ACE-1",1519,1441.50218206951,1596.49781793049,1261,1443
"628","371","Chao1984",1413,1354.28661231902,1471.71338768098,1312,1544
"629","371","ChaoBunge2002",3046,2293.8738853024,3798.1261146976,1983,5051
"630","371","ACE-1",1779,1676.26891201819,1881.73108798181,1402,1623
"631","372","Chao1984",1351,1293.0074244752,1408.9925755248,1252,1481
"632","372","ChaoBunge2002",2397,1948.98444392986,2845.01555607014,1725,3530
"633","372","ACE-1",1615,1525.61687607264,1704.38312392736,1301,1500
"634","373","Chao1984",1203,1144.70374471114,1261.29625528886,1104,1335
"635","373","ChaoBunge2002",2605,1854.43379125507,3355.56620874493,1593,4690
"636","373","ACE-1",1474,1380.52716509914,1567.47283490086,1154,1356
"637","374","Chao1984",1151,1094.2840003438,1207.7159996562,1056,1280
"638","374","ChaoBunge2002",1877,1526.85627887618,2227.14372112382,1356,2768
"639","374","ACE-1",1332,1251.16013823205,1412.83986176795,1078,1263
"640","375","Chao1984",1318,1265.71075915982,1370.28924084018,1229,1435
"641","375","ChaoBunge2002",2418,1968.43092464319,2867.56907535681,1743,3554
"642","375","ACE-1",1633,1542.08215634429,1723.91784365571,1315,1518
"643","376","Chao1984",1167,1121.66821265164,1212.33178734836,1091,1270
"644","376","ChaoBunge2002",1830,1574.22283416099,2085.77716583901,1428,2450
"645","376","ACE-1",1407,1331.01664088416,1482.98335911584,1161,1339
"646","377","Chao1984",875,804.841148358318,945.158851641682,761,1040
"647","377","ChaoBunge2002",19526,-115651.898741882,154703.898741882,787,932069
"648","377","ACE-1",1090,979.946491554399,1200.0535084456,770,987
"649","378","Chao1984",1439,1366.28732701585,1511.71267298415,1315,1603
"650","378","ChaoBunge2002",4023,2313.92414721593,5732.07585278407,1993,9303
"651","378","ACE-1",1769,1654.6468059491,1883.3531940509,1358,1598
"652","379","Chao1984",897,841.108156951085,952.891843048915,805,1027
"653","379","ChaoBunge2002",1696,1198.74178463928,2193.25821536072,1039,3102
"654","379","ACE-1",1038,961.873987617298,1114.1260123827,811,978
"655","380","Chao1984",719,628.087829740723,809.912170259277,578,942
"656","380","ChaoBunge2002",-531,-884.492873025789,-177.507126974211,-83,-1565
"657","380","ACE-1",943,804.461569365634,1081.53843063437,564,799
"658","381","Chao1984",1026,965.868257345868,1086.13174265413,927,1165
"659","381","ChaoBunge2002",1922,1378.06787543152,2465.93212456848,1191,3437
"660","381","ACE-1",1177,1096.06530053552,1257.93469946448,927,1104
"661","382","Chao1984",691,626.558165761673,755.441834238327,589,847
"662","382","ChaoBunge2002",6241,-13108.6199565866,25590.6199565866,576,128136
"663","382","ACE-1",826,735.3652286655,916.6347713345,584,767
"664","383","Chao1984",394,328.931420553004,459.068579446996,300,565
"665","383","ChaoBunge2002",-306,-564.708525004692,-47.291474995308,-12,-1134
"666","383","ACE-1",534,429.932377697748,638.067622302252,302,478
"667","384","Chao1984",1150,1099.99517944794,1200.00482055206,1066,1264
"668","384","ChaoBunge2002",1548,1372.20643930441,1723.79356069559,1264,1963
"669","384","ACE-1",1281,1214.9793210048,1347.0206789952,1082,1244
"670","385","Chao1984",1037,975.269299234662,1098.73070076534,933,1178
"671","385","ChaoBunge2002",-11097,-41325.0431110123,19131.0431110123,-182,-191761
"672","385","ACE-1",1488,1355.55769830577,1620.44230169423,1038,1294
"673","386","Chao1984",821,768.841283370107,873.158716629893,735,942
"674","386","ChaoBunge2002",4410,-1043.3754897196,9863.3754897196,954,30256
"675","386","ACE-1",1097,995.878360856897,1198.1216391431,794,997
"676","387","Chao1984",981,907.381547111443,1054.61845288856,860,1152
"677","387","ChaoBunge2002",-2930,-6157.56737468298,297.567374682983,-252,-15936
"678","387","ACE-1",1368,1225.22873017628,1510.77126982372,917,1181
"679","388","Chao1984",1169,1102.08397837866,1235.91602162134,1056,1321
"680","388","ChaoBunge2002",147326,-4031685.69820838,4326337.69820838,1508,23429709
"681","388","ACE-1",1623,1488.76960612386,1757.23039387614,1154,1416
"682","389","Chao1984",941,879.322733370296,1002.6772666297,839,1084
"683","389","ChaoBunge2002",4242,76.3836144296001,8407.6163855704,1123,22170
"684","389","ACE-1",1192,1090.75307928318,1293.24692071682,873,1079
"685","390","Chao1984",925,857.905016008655,992.094983991345,815,1081
"686","390","ChaoBunge2002",-3318,-7595.49732070219,959.497320702189,-200,-22030
"687","390","ACE-1",1302,1166.65210785727,1437.34789214273,881,1133
"688","391","Chao1984",1038,968.626013520917,1107.37398647908,922,1197
"689","391","ChaoBunge2002",-5719,-15070.4544518145,3632.45445181446,-243,-51903
"690","391","ACE-1",1448,1312.04846349746,1583.95153650254,995,1253
"691","392","Chao1984",1031,956.368957371766,1105.63104262823,907,1203
"692","392","ChaoBunge2002",-3340,-7004.48081021028,324.48081021028,-308,-18135
"693","392","ACE-1",1431,1291.32812714265,1570.67187285735,964,1220
"694","393","Chao1984",894,839.626236097692,948.373763902308,805,1020
"695","393","ChaoBunge2002",13807,-39227.7145526854,66841.7145526854,946,359323
"696","393","ACE-1",1241,1127.03744373161,1354.96255626839,885,1109
"697","394","Chao1984",964,883.904702965432,1044.09529703457,833,1151
"698","394","ChaoBunge2002",-7040,-25169.9250461541,11089.9250461541,-74,-113370
"699","394","ACE-1",1208,1086.50787424511,1329.49212575489,835,1066
"700","395","Chao1984",875,820.141033310315,929.858966689685,785,1003
"701","395","ChaoBunge2002",2228,1171.8019851833,3284.1980148167,1053,5668
"702","395","ACE-1",1072,984.532093815648,1159.46790618435,813,1000
"703","396","Chao1984",746,698.838376300216,793.161623699784,669,857
"704","396","ChaoBunge2002",2141,881.979601232315,3400.02039876768,879,6583
"705","396","ACE-1",948,864.418161331438,1031.58183866856,710,886
"706","397","Chao1984",923,855.194775242905,990.805224757095,812,1081
"707","397","ChaoBunge2002",-53197,-964603.681405262,858209.681405262,-75,-5702837
"708","397","ACE-1",1199,1082.8123506494,1315.1876493506,842,1067
"709","398","Chao1984",1039,970.036264242302,1107.9637357577,924,1197
"710","398","ChaoBunge2002",126329,-3837140.33199163,4089798.33199163,1230,21670191
"711","398","ACE-1",1381,1256.87856058288,1505.12143941712,978,1221
"712","399","Chao1984",1089,1010.4242562849,1167.5757437151,959,1270
"713","399","ChaoBunge2002",-11992,-50920.4113692981,26936.4113692981,-118,-255036
"714","399","ACE-1",1397,1271.33748390962,1522.66251609038,978,1219
"715","400","Chao1984",909,852.081014162498,965.918985837502,815,1041
"716","400","ChaoBunge2002",2053,1261.38486277231,2844.61513722769,1097,4465
"717","400","ACE-1",1089,1004.18208870332,1173.81791129668,834,1018
"718","401","Chao1984",1242,1178.97494673007,1305.02505326993,1135,1384
"719","401","ChaoBunge2002",4393,1864.33099690829,6921.66900309171,1780,13111
"720","401","ACE-1",1631,1513.13183583388,1748.86816416612,1224,1468
"721","402","Chao1984",1263,1200.39862220799,1325.60137779201,1156,1404
"722","402","ChaoBunge2002",4386,2011.24334220926,6760.75665779074,1853,12378
"723","402","ACE-1",1652,1537.71871188713,1766.28128811287,1242,1478
"724","403","Chao1984",1378,1295.11107968996,1460.88892031004,1237,1565
"725","403","ChaoBunge2002",-10452,-30217.3017759145,9313.30177591455,-410,-114799
"726","403","ACE-1",1876,1723.06300478515,2028.93699521485,1311,1600
"727","404","Chao1984",1020,971.2185043158,1068.7814956842,938,1131
"728","404","ChaoBunge2002",1694,1376.08439194256,2011.91560805744,1224,2508
"729","404","ACE-1",1216,1139.10739320157,1292.89260679843,981,1158
"730","405","Chao1984",1264,1195.52835564995,1332.47164435005,1148,1419
"731","405","ChaoBunge2002",3547,1985.62411515561,5108.37588484438,1729,8451
"732","405","ACE-1",1569,1459.56236556491,1678.43763443509,1193,1423
"733","406","Chao1984",1259,1187.95058677328,1330.04941322672,1138,1419
"734","406","ChaoBunge2002",15844,-25598.5702059121,57286.5702059121,1501,266529
"735","406","ACE-1",1677,1547.49613828939,1806.50386171061,1211,1466
"736","407","Chao1984",1390,1309.87381494468,1470.12618505532,1254,1571
"737","407","ChaoBunge2002",3422,2081.52730372992,4762.47269627008,1787,7475
"738","407","ACE-1",1615,1506.99740742851,1723.00259257149,1242,1471
"739","408","Chao1984",1309,1237.14188356417,1380.85811643583,1187,1471
"740","408","ChaoBunge2002",-23446,-117615.709852648,70723.7098526477,-257,-635553
"741","408","ACE-1",1830,1686.40112975394,1973.59887024606,1293,1567
"742","409","Chao1984",1299,1209.56657495297,1388.43342504703,1149,1503
"743","409","ChaoBunge2002",20979,-61994.3518898915,103952.351889891,1326,563356
"744","409","ACE-1",1575,1448.98856369127,1701.01143630873,1134,1381
"745","410","Chao1984",1097,1031.92871375403,1162.07128624597,988,1246
"746","410","ChaoBunge2002",14118,-27039.7670665793,55275.7670665793,1229,269519
"747","410","ACE-1",1469,1347.6932486835,1590.3067513165,1057,1295
"748","411","Chao1984",1371,1273.50195479169,1468.49804520831,1207,1593
"749","411","ChaoBunge2002",-4417,-8884.86947448722,50.8694744872191,-523,-21836
"750","411","ACE-1",1769,1616.41355258165,1921.58644741835,1210,1494
"751","412","Chao1984",1125,1048.90810476756,1201.09189523244,998,1299
"752","412","ChaoBunge2002",-3577,-7388.16475278207,234.164752782073,-358,-18754
"753","412","ACE-1",1572,1423.41801208082,1720.58198791918,1071,1348
"754","413","Chao1984",1427,1339.68257672998,1514.31742327002,1279,1624
"755","413","ChaoBunge2002",-6120,-13309.8275485964,1069.82754859637,-578,-36509
"756","413","ACE-1",1941,1782.02612059286,2099.97387940714,1345,1643
"757","414","Chao1984",1232,1133.40783709579,1330.59216290421,1069,1459
"758","414","ChaoBunge2002",-3010,-5844.07002763701,-175.929972362988,-372,-13563
"759","414","ACE-1",1552,1405.67048345978,1698.32951654022,1051,1320
"760","415","Chao1984",1630,1499.17067415904,1760.82932584096,1409,1927
"761","415","ChaoBunge2002",-857,-1172.74566971066,-541.254330289344,-357,-1617
"762","415","ACE-1",2368,2130.99109166847,2605.00890833153,1429,1810
"763","416","Chao1984",1209,1133.79782321676,1284.20217678324,1083,1381
"764","416","ChaoBunge2002",3128,1678.88926499955,4577.11073500045,1483,7772
"765","416","ACE-1",1409,1305.98236459463,1512.01763540537,1075,1293
"766","449","Chao1984",1085,1002.36944667352,1167.63055332648,949,1276
"767","449","ChaoBunge2002",-4564,-11333.6180183783,2205.61801837831,-219,-36426
"768","449","ACE-1",1395,1262.88678895446,1527.11321104554,961,1208
"769","450","Chao1984",1069,995.073924176993,1142.92607582301,946,1240
"770","450","ChaoBunge2002",-8276,-27994.6638821135,11442.6638821135,-148,-121260
"771","450","ACE-1",1413,1283.84144139514,1542.15855860486,988,1234
"772","451","Chao1984",1012,940.28539852851,1083.71460147149,895,1180
"773","451","ChaoBunge2002",4116,119.46715940774,8112.53284059226,1100,21236
"774","451","ACE-1",1193,1095.40316272904,1290.59683727096,885,1081
"775","452","Chao1984",1032,960.496711145397,1103.5032888546,914,1197
"776","452","ChaoBunge2002",-22178,-161601.961898946,117245.961898946,-64,-962658
"777","452","ACE-1",1340,1219.21856898755,1460.78143101245,947,1179
"778","453","Chao1984",952,888.949151966912,1015.05084803309,848,1098
"779","453","ChaoBunge2002",3392,807.313943310719,5976.68605668928,1124,13420
"780","453","ACE-1",1159,1065.07260302649,1252.92739697351,861,1052
"781","454","Chao1984",826,774.628497590396,877.371502409604,742,946
"782","454","ChaoBunge2002",1843,1100.98584319755,2585.01415680245,964,4140
"783","454","ACE-1",1002,920.388829872433,1083.61117012757,769,944
"784","455","Chao1984",948,882.139164286691,1013.86083571331,840,1101
"785","455","ChaoBunge2002",20072,-97103.2728378158,137247.272837816,917,809842
"786","455","ACE-1",1218,1108.18292981174,1327.81707018826,869,1083
"787","456","Chao1984",931,871.00151538529,990.99848461471,832,1070
"788","456","ChaoBunge2002",2841,983.684206823433,4698.31579317657,1070,9638
"789","456","ACE-1",1141,1044.03187048768,1237.96812951232,857,1058
"790","457","Chao1984",813,759.148283007365,866.851716992635,726,940
"791","457","ChaoBunge2002",1892,1023.48142914648,2760.51857085352,916,4696
"792","457","ACE-1",970,888.900944409917,1051.09905559008,741,916
"793","458","Chao1984",903,846.964612680513,959.035387319487,811,1033
"794","458","ChaoBunge2002",2698,1133.94320587627,4262.05679412373,1109,8160
"795","458","ACE-1",1126,1034.55978967329,1217.44021032671,844,1033
"796","459","Chao1984",412,341.333529874487,482.666470125513,312,600
"797","459","ChaoBunge2002",-981,-2970.89121878921,1008.89121878921,35,-11463
"798","459","ACE-1",454,375.78429684984,532.21570315016,288,436
"799","460","Chao1984",295,253.258406180609,336.741593819391,236,406
"800","460","ChaoBunge2002",-568,-1374.64122453831,238.641224538315,17,-4110
"801","460","ACE-1",423,342.431175451208,503.568824548792,252,397
"802","461","Chao1984",852,796.723351770398,907.276648229602,762,982
"803","461","ChaoBunge2002",7372,-8716.1871255707,23460.1871255707,899,100320
"804","461","ACE-1",1126,1025.5986344672,1226.4013655328,811,1007
"805","462","Chao1984",568,489.595723096489,646.404276903511,450,765
"806","462","ChaoBunge2002",-308,-497.337218754626,-118.662781245374,-49,-827
"807","462","ACE-1",815,678.114490959682,951.885509040318,457,681
"808","463","Chao1984",289,244.354591151497,333.645408848503,226,409
"809","463","ChaoBunge2002",-623,-1639.63173033576,393.631730335761,24,-5429
"810","463","ACE-1",387,311.291196885263,462.708803114737,233,373
"811","464","Chao1984",882,821.556983595749,942.443016404251,783,1023
"812","464","ChaoBunge2002",4442,-731.666352907402,9615.6663529074,1010,28354
"813","464","ACE-1",1114,1016.94275572723,1211.05724427277,809,1003
"814","465","Chao1984",1229,1163.80741704194,1294.19258295806,1119,1377
"815","465","ChaoBunge2002",3668,1847.88886780939,5488.11113219061,1652,9617
"816","465","ACE-1",1539,1431.17467896425,1646.82532103575,1170,1394
"817","466","Chao1984",1094,1033.59245828367,1154.40754171633,993,1232
"818","466","ChaoBunge2002",2279,1579.28398743944,2978.71601256056,1360,4266
"819","466","ACE-1",1301,1212.1321310081,1389.8678689919,1014,1206
"820","467","Chao1984",1230,1176.33051895529,1283.66948104471,1139,1352
"821","467","ChaoBunge2002",2611,1934.47316938541,3287.52683061459,1671,4442
"822","467","ACE-1",1553,1456.75536918561,1649.24463081439,1223,1433
"823","468","Chao1984",1107,1046.47812697522,1167.52187302478,1006,1246
"824","468","ChaoBunge2002",2369,1611.04651176715,3126.95348823285,1384,4542
"825","468","ACE-1",1320,1230.11180465439,1409.88819534561,1028,1223
"826","469","Chao1984",832,774.641024013671,889.358975986329,739,967
"827","469","ChaoBunge2002",2207,1037.52130602425,3376.47869397575,973,6174
"828","469","ACE-1",999,915.696033408785,1082.30396659121,751,925
"829","470","Chao1984",751,710.831258182318,791.168741817682,685,845
"830","470","ChaoBunge2002",1536,1079.18717692649,1992.81282307351,938,2837
"831","470","ACE-1",951,878.127110193,1023.872889807,738,898
"832","471","Chao1984",850,800.426750044897,899.573249955103,769,965
"833","471","ChaoBunge2002",1984,1190.37463011496,2777.62536988504,1038,4430
"834","471","ACE-1",1053,969.975187763993,1136.02481223601,808,986
"835","472","Chao1984",771,714.547227146866,827.452772853134,680,904
"836","472","ChaoBunge2002",-7123,-28389.7424726743,14143.7424726743,-38,-137080
"837","472","ACE-1",1070,958.603168936316,1181.39683106368,735,946
"838","473","Chao1984",800,754.184015745732,845.815984254268,725,907
"839","473","ChaoBunge2002",1825,1136.52284358352,2513.47715641648,988,3912
"840","473","ACE-1",1004,924.449836441411,1083.55016355859,770,942
"841","474","Chao1984",1063,1002.07947930113,1123.92052069887,962,1203
"842","474","ChaoBunge2002",2733,1517.37908143319,3948.62091856681,1331,6578
"843","474","ACE-1",1292,1197.17534828815,1386.82465171185,991,1194
"844","475","Chao1984",598,547.771309094838,648.228690905162,518,718
"845","475","ChaoBunge2002",-2527,-6470.91808071493,1416.91808071493,-68,-21380
"846","475","ACE-1",882,772.577376843537,991.422623156463,577,780
"847","476","Chao1984",346,294.455510323605,397.544489676395,271,479
"848","476","ChaoBunge2002",-528,-1134.70131775329,78.7013177532855,-3,-2905
"849","476","ACE-1",486,390.009611310656,581.990388689344,286,467
"850","477","Chao1984",568,517.643769005216,618.356230994784,490,691
"851","477","ChaoBunge2002",1596,505.247170770588,2686.75282922941,604,5726
"852","477","ACE-1",678,607.862986690241,748.137013309759,493,640
"853","478","Chao1984",310,273.407088969374,346.592911030626,256,404
"854","478","ChaoBunge2002",-414,-816.165581996392,-11.8344180036081,-11,-1832
"855","478","ACE-1",522,420.151444057645,623.848555942355,300,478
"856","479","Chao1984",297,245.019860143555,348.980139856445,224,436
"857","479","ChaoBunge2002",-252,-491.36369727035,-12.6363027296495,3,-1058
"858","479","ACE-1",449,339.953251030808,558.046748969192,240,425
"859","480","Chao1984",1172,1106.62190275625,1237.37809724375,1063,1321
"860","480","ChaoBunge2002",2055,1575.72276978382,2534.27723021618,1375,3329
"861","480","ACE-1",1324,1240.41719323301,1407.58280676699,1054,1239
"862","481","Chao1984",1349,1266.67038025897,1431.32961974103,1209,1535
"863","481","ChaoBunge2002",-18234,-79410.5764080057,42942.5764080057,-246,-403271
"864","481","ACE-1",1803,1654.44616441171,1951.55383558829,1274,1561
"865","482","Chao1984",1176,1103.70373453628,1248.29626546372,1055,1342
"866","482","ChaoBunge2002",5923,-372.005085210843,12218.0050852108,1427,33803
"867","482","ACE-1",1467,1352.25241247136,1581.74758752864,1083,1315
"868","483","Chao1984",1006,939.388722900854,1072.61127709915,895,1159
"869","483","ChaoBunge2002",-14264,-70672.6444215096,42144.6444215095,-93,-379788
"870","483","ACE-1",1365,1240.83649053514,1489.16350946486,955,1193
"871","484","Chao1984",995,917.220061709747,1072.77993829025,869,1177
"872","484","ChaoBunge2002",7954,-9523.60209605417,25431.6020960542,961,109117
"873","484","ACE-1",1184,1078.86389454803,1289.13610545197,853,1060
"874","485","Chao1984",928,866.325367850604,989.674632149396,827,1071
"875","485","ChaoBunge2002",-17602,-110992.407844174,75788.4078441737,-59,-642779
"876","485","ACE-1",1270,1152.22066960403,1387.77933039597,889,1114
"877","486","Chao1984",1133,1037.20508695572,1228.79491304428,975,1355
"878","486","ChaoBunge2002",-1628,-2712.50642691814,-543.49357308186,-340,-4980
"879","486","ACE-1",1514,1355.55744699494,1672.44255300506,985,1268
"880","487","Chao1984",1229,1135.98559441675,1322.01440558325,1074,1442
"881","487","ChaoBunge2002",-1847,-3019.35676741507,-674.643232584926,-425,-5407
"882","487","ACE-1",1705,1536.92537985383,1873.07462014617,1115,1413
"883","488","Chao1984",1182,1089.08662072345,1274.91337927655,1028,1396
"884","488","ChaoBunge2002",-2406,-4342.27047770924,-469.729522290756,-386,-9032
"885","488","ACE-1",1563,1409.92055515797,1716.07944484203,1040,1316
"886","489","Chao1984",1050,969.742686488639,1130.25731351136,918,1237
"887","489","ChaoBunge2002",-4833,-12516.6780626867,2850.67806268673,-197,-42206
"888","489","ACE-1",1355,1226.14368199033,1483.85631800967,932,1173
"889","490","Chao1984",1209,1115.00086496732,1302.99913503268,1054,1426
"890","490","ChaoBunge2002",-4394,-9954.79895157237,1166.79895157237,-314,-28626
"891","490","ACE-1",1529,1386.3948131337,1671.6051868663,1047,1313
"892","491","Chao1984",1491,1376.13367329978,1605.86632670022,1298,1752
"893","491","ChaoBunge2002",-1267,-1801.12561455486,-732.874385445138,-477,-2635
"894","491","ACE-1",2149,1937.1763623456,2360.8236376544,1340,1697
"895","492","Chao1984",1060,986.48361596813,1133.51638403187,938,1229
"896","492","ChaoBunge2002",-3424,-7099.53452694209,251.534526942095,-334,-18109
"897","492","ACE-1",1484,1342.1535006736,1625.8464993264,1004,1266
"898","493","Chao1984",1157,1075.84073814103,1238.15926185897,1022,1343
"899","493","ChaoBunge2002",-3038,-5691.89838483806,-384.101615161938,-443,-12574
"900","493","ACE-1",1604,1454.94115141173,1753.05884858827,1078,1351
"901","494","Chao1984",1197,1117.57234741388,1276.42765258612,1064,1378
"902","494","ChaoBunge2002",-5097,-11505.0286835494,1311.02868354944,-395,-33019
"903","494","ACE-1",1636,1490.69998919471,1781.30001080529,1122,1393
"904","495","Chao1984",1695,1566.6683242465,1823.3316757535,1477,1984
"905","495","ChaoBunge2002",-1358,-1898.26702525247,-817.732974747533,-545,-2720
"906","495","ACE-1",2398,2168.27773943793,2627.72226056207,1507,1904
"907","496","Chao1984",1068,994.635737933896,1141.3642620661,946,1237
"908","496","ChaoBunge2002",-16633,-88069.8914629249,54803.8914629249,-104,-485074
"909","496","ACE-1",1399,1276.17091211315,1521.82908788685,981,1214
"910","513","Chao1984",926,875.537658640215,976.462341359785,843,1043
"911","513","ChaoBunge2002",1387,1142.66733467344,1631.33266532656,1022,2006
"912","513","ACE-1",1038,973.26314878714,1102.73685121286,845,993
"913","514","Chao1984",954,890.914389795616,1017.08561020438,851,1101
"914","514","ChaoBunge2002",2371,1276.11804118186,3465.88195881814,1137,5899
"915","514","ACE-1",1117,1031.50874940228,1202.49125059772,848,1026
"916","515","Chao1984",1188,1108.66592226262,1267.33407773738,1056,1370
"917","515","ChaoBunge2002",4686,601.272921553809,8770.72707844619,1364,21367
"918","515","ACE-1",1398,1288.31311304114,1507.68688695886,1043,1268
"919","516","Chao1984",939,891.973769673377,986.026230326623,861,1047
"920","516","ChaoBunge2002",1813,1336.31886761263,2289.68113238737,1159,3118
"921","516","ACE-1",1149,1070.26425453561,1227.73574546439,907,1081
"922","517","Chao1984",916,870.912195038459,961.087804961541,842,1021
"923","517","ChaoBunge2002",1368,1147.7048101593,1588.2951898407,1032,1916
"924","517","ACE-1",1055,990.665060428089,1119.33493957191,866,1016
"925","518","Chao1984",805,766.338541148974,843.661458851026,742,896
"926","518","ChaoBunge2002",1383,1083.74781744992,1682.25218255008,954,2170
"927","518","ACE-1",981,914.530583338841,1047.46941666116,788,937
"928","519","Chao1984",1086,1007.24406002978,1164.75593997022,957,1269
"929","519","ChaoBunge2002",5878,-2041.8219156695,13797.8219156695,1145,44585
"930","519","ACE-1",1283,1176.14345424413,1389.85654575587,940,1154
"931","520","Chao1984",852,797.97833119681,906.02166880319,764,979
"932","520","ChaoBunge2002",1911,1147.42957687306,2674.57042312694,1001,4264
"933","520","ACE-1",1017,937.369482176554,1096.63051782345,781,951
"934","521","Chao1984",678,645.329259172983,710.670740827017,625,755
"935","521","ChaoBunge2002",1014,849.038240349956,1178.96175965004,766,1429
"936","521","ACE-1",805,751.585274474032,858.414725525968,660,786
"937","522","Chao1984",884,833.103713298513,934.896286701487,802,1004
"938","522","ChaoBunge2002",1362,1089.98183607265,1634.01816392735,965,2066
"939","522","ACE-1",990,925.094411709963,1054.90558829004,801,949
"940","523","Chao1984",732,679.313575408422,784.686424591578,648,858
"941","523","ChaoBunge2002",1093,849.757232046554,1336.24276795345,752,1746
"942","523","ACE-1",789,730.191708254972,847.808291745028,629,763
"943","524","Chao1984",285,248.944968508372,321.055031491628,234,381
"944","524","ChaoBunge2002",-1926,-9131.44995315903,5279.44995315903,47,-47930
"945","524","ACE-1",391,323.960050511687,458.039949488313,249,375
"946","525","Chao1984",809,757.168093190781,860.831906809219,725,931
"947","525","ChaoBunge2002",1727,1075.12690133836,2378.87309866164,936,3707
"948","525","ACE-1",964,887.129311157548,1040.87068884245,742,907
"949","526","Chao1984",511,445.030309990117,576.969690009883,411,676
"950","526","ChaoBunge2002",-594,-1095.81671886648,-92.1832811335172,-51,-2265
"951","526","ACE-1",706,590.837952099437,821.162047900563,422,626
"952","527","Chao1984",336,269.620409763241,402.379590236759,245,517
"953","527","ChaoBunge2002",-338,-697.048041404285,21.048041404285,4,-1653
"954","527","ACE-1",410,324.038664878125,495.961335121875,233,385
"955","528","Chao1984",938,887.66319006344,988.33680993656,855,1055
"956","528","ChaoBunge2002",1504,1209.83271738927,1798.16728261073,1073,2263
"957","528","ACE-1",1081,1010.84431205237,1151.15568794763,871,1032
